INDEX VERSION 1.131+C:\Users\ramannpr\support_works\sujay- java springboot microservices\.metadata\.plugins\org.eclipse.jdt.core
924709048.index
3961190441.index
1005053559.index
2515198726.index
1737117284.index
696938426.index
1058692400.index
204044609.index
785988714.index
2020632996.index
2762973419.index
1846568206.index
3638074430.index
1114514500.index
2218208024.index
656741405.index
676535794.index
43643831.index
2112741047.index
2811098500.index
3695637975.index
1810282188.index
2335980471.index
3873696353.index
1394594445.index
1367400509.index
3796863028.index
3549324868.index
602885882.index
3370205914.index
1575816604.index
1793950835.index
689552030.index
3629067910.index
2511425907.index
1951950132.index
1401501661.index
2204403105.index
3484441794.index
2925679001.index
1129633148.index
3915658389.index
2513380141.index
1456010245.index
751887502.index
332552512.index
3139554680.index
3880231276.index
1417738056.index
709509821.index
26683265.index
3878524279.index
4050138530.index
2996827272.index
3967280502.index
3376339023.index
4085636665.index
412363776.index
3008087201.index
2231687035.index
3090767186.index
1278731301.index
1487783305.index
956413570.index
1068494516.index
2377331088.index
2720751595.index
2244897288.index
2529736297.index
1462597217.index
778568628.index
1756086121.index
3359857299.index
710418648.index
3324278907.index
2747938833.index
319198531.index
226300725.index
3556922869.index
3054278450.index
2168459144.index
692542439.index
2824924681.index
1306806701.index
3292617649.index
358866688.index
827091773.index
1362710205.index
4183636377.index
446869445.index
3170267773.index
3089142448.index
3962812789.index
2366187434.index
258828259.index
2090482743.index
2826165369.index
2101847292.index
575839070.index
2586063389.index
2080692850.index
1158433969.index
4232178577.index
2319844582.index
2273437915.index
4128725239.index
3144653172.index
1214367305.index
124281760.index
870993433.index
462663587.index
2513897111.index
1912225051.index
2138448766.index
2088757168.index
669052305.index
374393369.index
1797716867.index
3597194906.index
1710102452.index
737060273.index
